2.827274413999999979e+03,2.568693400000000082e+01
2.825912108999999873e+03,3.119127699999999948e+01
2.824548827999999958e+03,2.201318200000000047e+01
2.823185547000000042e+03,2.934532000000000096e+01
2.821822266000000127e+03,3.300719800000000248e+01
2.820458983999999873e+03,3.116752200000000173e+01
2.819094727000000148e+03,3.299461399999999855e+01
2.817730469000000085e+03,3.298831899999999706e+01
2.816366211000000021e+03,2.748502200000000073e+01
2.815001952999999958e+03,4.030366899999999930e+01
2.813636719000000085e+03,4.579087400000000230e+01
2.812271483999999873e+03,3.479441500000000076e+01
2.810906250000000000e+03,3.295682899999999904e+01
2.809541016000000127e+03,3.295052299999999690e+01
2.808174805000000106e+03,2.562328300000000070e+01
2.806808594000000085e+03,4.025744999999999862e+01
2.805442383000000063e+03,2.927253899999999831e+01
2.804075194999999894e+03,2.377938100000000077e+01
2.802708008000000063e+03,4.389197899999999919e+01
2.801340819999999894e+03,2.194178199999999990e+01
2.799973633000000063e+03,3.290635699999999986e+01
2.798605469000000085e+03,2.376114300000000057e+01
2.797238280999999915e+03,2.192914999999999992e+01
2.795869141000000127e+03,3.836864099999999667e+01
2.794500977000000148e+03,3.288108799999999832e+01
2.793131836000000021e+03,3.104838900000000024e+01
2.791762694999999894e+03,4.199856599999999673e+01
2.790393555000000106e+03,2.921077000000000012e+01
2.789024413999999979e+03,3.468110999999999677e+01
2.787654297000000042e+03,4.014934499999999673e+01
2.786284180000000106e+03,4.014160900000000254e+01
2.784913086000000021e+03,3.648533599999999666e+01
2.783542969000000085e+03,3.465438499999999777e+01
2.782171875000000000e+03,4.011838900000000052e+01
2.780800780999999915e+03,4.011064900000000222e+01
2.779429688000000169e+03,3.281146600000000291e+01
2.778057616999999937e+03,3.645014199999999960e+01
2.776685547000000042e+03,3.826525500000000335e+01
2.775313477000000148e+03,4.190146299999999968e+01
2.773940430000000106e+03,3.096465699999999899e+01
2.772568358999999873e+03,2.913756800000000169e+01
2.771195313000000169e+03,3.277341799999999949e+01
2.769821288999999979e+03,2.912628700000000137e+01
2.768448241999999937e+03,4.186092800000000125e+01
2.767074219000000085e+03,3.821343999999999852e+01
2.765700194999999894e+03,4.002536800000000028e+01
2.764325194999999894e+03,4.911251399999999734e+01
2.762951172000000042e+03,4.000983800000000201e+01
2.761576172000000042e+03,3.818379600000000096e+01
2.760201172000000042e+03,5.453768900000000031e+01
2.758825194999999894e+03,3.998653399999999891e+01
2.757449219000000085e+03,3.634432999999999936e+01
2.756073241999999937e+03,4.360471700000000084e+01
2.754697266000000127e+03,5.994482800000000111e+01
2.753320313000000169e+03,5.266853700000000060e+01
2.751944336000000021e+03,4.176346999999999809e+01
2.750567383000000063e+03,4.538623400000000174e+01
2.749189452999999958e+03,4.900758400000000137e+01
2.747811522999999852e+03,5.444226100000000201e+01
2.746434569999999894e+03,5.806042500000000217e+01
2.745055663999999979e+03,5.804909899999999823e+01
2.743677733999999873e+03,4.352833199999999891e+01
2.742298827999999958e+03,5.258646800000000354e+01
2.740919922000000042e+03,5.076322600000000307e+01
2.739541016000000127e+03,5.256592899999999702e+01
2.738161133000000063e+03,6.342924099999999754e+01
2.736781250000000000e+03,6.160493499999999756e+01
2.735401366999999937e+03,5.978132999999999697e+01
2.734021483999999873e+03,6.882563799999999787e+01
2.732640625000000000e+03,7.243386099999999317e+01
2.731259766000000127e+03,6.698820499999999356e+01
2.729878905999999915e+03,7.240550199999999847e+01
2.728497069999999894e+03,7.239131199999999922e+01
2.727115233999999873e+03,8.142426299999999628e+01
2.725733397999999852e+03,7.959922799999999654e+01
2.724351563000000169e+03,7.958361100000000476e+01
2.722968750000000000e+03,9.041817500000000507e+01
2.721585938000000169e+03,9.763246200000000385e+01
2.720203125000000000e+03,9.399798599999999738e+01
2.718820313000000169e+03,9.759411599999999964e+01
2.717436522999999852e+03,1.048027110000000022e+02
2.716052733999999873e+03,1.156216349999999977e+02
2.714668944999999894e+03,1.155989000000000004e+02
2.713284180000000106e+03,1.246055450000000064e+02
2.711899413999999979e+03,1.281920619999999928e+02
2.710514647999999852e+03,1.588546599999999955e+02
2.709128905999999915e+03,1.588233799999999860e+02
2.707744141000000127e+03,1.696188199999999995e+02
2.706358397999999852e+03,1.858222959999999944e+02
2.704971680000000106e+03,1.821781619999999862e+02
2.703585938000000169e+03,2.001761170000000050e+02
2.702199219000000085e+03,2.416063839999999914e+02
2.700812500000000000e+03,2.776122129999999970e+02
2.699425780999999915e+03,2.739527889999999957e+02
2.698038086000000021e+03,3.081359860000000026e+02
2.696650391000000127e+03,3.711314390000000003e+02
2.695262694999999894e+03,3.854681090000000268e+02
2.693874022999999852e+03,4.412196660000000179e+02
2.692485352000000148e+03,4.843453979999999888e+02
2.691096680000000106e+03,5.184530640000000403e+02
2.689708008000000063e+03,5.489475099999999657e+02
2.688318358999999873e+03,6.280155640000000403e+02
2.686928711000000021e+03,7.160478520000000344e+02
2.685539063000000169e+03,7.968500980000000027e+02
2.684149413999999979e+03,8.164746089999999867e+02
2.682758788999999979e+03,9.349837039999999888e+02
2.681368163999999979e+03,9.725497440000000324e+02
2.679977538999999979e+03,1.020884766000000013e+03
2.678585938000000169e+03,1.070997436999999991e+03
2.677194336000000021e+03,1.072581421000000091e+03
2.675802733999999873e+03,1.108293701000000056e+03
2.674410155999999915e+03,1.196072754000000032e+03
2.673018555000000106e+03,1.138377563000000009e+03
2.671625977000000148e+03,1.195597412000000077e+03
2.670232422000000042e+03,1.145104248000000098e+03
2.668839844000000085e+03,1.100014525999999933e+03
2.667446288999999979e+03,1.112354370000000017e+03
2.666052733999999873e+03,9.847758179999999584e+02
2.664658202999999958e+03,9.451247560000000476e+02
2.663264647999999852e+03,8.875589599999999564e+02
2.661869141000000127e+03,7.851986689999999953e+02
2.660474608999999873e+03,7.151411739999999782e+02
2.659080077999999958e+03,6.307756960000000390e+02
2.657684569999999894e+03,5.733180539999999610e+02
2.656289063000000169e+03,5.051357120000000123e+02
2.654892577999999958e+03,4.441441649999999868e+02
2.653496094000000085e+03,4.189878229999999917e+02
2.652099608999999873e+03,3.777297970000000191e+02
2.650703125000000000e+03,3.454373780000000238e+02
2.649305663999999979e+03,3.042104489999999828e+02
2.647909180000000106e+03,2.808911439999999970e+02
2.646510741999999937e+03,2.593698729999999841e+02
2.645113280999999915e+03,2.020891880000000072e+02
2.643714844000000085e+03,2.092009119999999882e+02
2.642316405999999915e+03,1.912821959999999990e+02
2.640917969000000085e+03,1.769452819999999917e+02
2.639518555000000106e+03,1.536792599999999993e+02
2.638119141000000127e+03,1.232760930000000030e+02
2.636719727000000148e+03,1.500451659999999947e+02
2.635320313000000169e+03,1.321561429999999859e+02
2.633919922000000042e+03,1.232019580000000047e+02
2.632519530999999915e+03,9.818476099999999462e+01
2.631119141000000127e+03,9.459541299999999353e+01
2.629717772999999852e+03,9.814534799999999848e+01
2.628316405999999915e+03,8.920512399999999786e+01
2.626915038999999979e+03,8.740346499999999708e+01
2.625513672000000042e+03,7.490219899999999598e+01
2.624111327999999958e+03,5.349081799999999731e+01
2.622708983999999873e+03,6.595874799999999993e+01
2.621305663999999979e+03,6.059854899999999844e+01
2.619903319999999894e+03,5.345855300000000199e+01
2.618500000000000000e+03,6.235576199999999858e+01
2.617096680000000106e+03,5.699950400000000172e+01
2.615692383000000063e+03,4.808364900000000119e+01
2.614288086000000021e+03,4.451292800000000227e+01
2.612883788999999979e+03,4.806427800000000161e+01
2.611479491999999937e+03,4.449499099999999885e+01
2.610074219000000085e+03,5.160378299999999996e+01
2.608668944999999894e+03,4.625612999999999886e+01
2.607263672000000042e+03,4.446807900000000302e+01
2.605858397999999852e+03,4.268074000000000012e+01
2.604452147999999852e+03,4.445013000000000147e+01
2.603045897999999852e+03,3.377528000000000219e+01
2.601638672000000042e+03,4.798675500000000227e+01
2.600232422000000042e+03,3.376163499999999829e+01
2.598825194999999894e+03,5.507364299999999702e+01
2.597416991999999937e+03,3.730041099999999687e+01
2.596009766000000127e+03,4.972382700000000000e+01
2.594601563000000169e+03,3.550983399999999790e+01
2.593193358999999873e+03,4.970371200000000300e+01
2.591784180000000106e+03,2.662159899999999979e+01
2.590375977000000148e+03,4.613476599999999905e+01
2.588966797000000042e+03,4.789947899999999947e+01
2.587556641000000127e+03,3.724760400000000260e+01
2.586147461000000021e+03,2.837337700000000140e+01
2.584737305000000106e+03,3.191357999999999961e+01
2.583327147999999852e+03,4.077019899999999808e+01
2.581916016000000127e+03,4.607870499999999936e+01
2.580504883000000063e+03,4.606935899999999862e+01
2.579093750000000000e+03,3.897385400000000288e+01
2.577682616999999937e+03,3.011004799999999904e+01
2.576270508000000063e+03,2.479147700000000043e+01
2.574858397999999852e+03,2.832736399999999932e+01
2.573446288999999979e+03,3.186181099999999944e+01
2.572033202999999958e+03,3.539482100000000031e+01
2.570621094000000085e+03,3.892638800000000288e+01
2.569208008000000063e+03,3.361141200000000140e+01
2.567793944999999894e+03,3.891056100000000129e+01
2.566379883000000063e+03,3.713434600000000074e+01
2.564965819999999894e+03,3.182296399999999892e+01
2.563551758000000063e+03,3.181648799999999966e+01
2.562136719000000085e+03,3.181001099999999937e+01
2.560722655999999915e+03,3.710412199999999672e+01
2.559306641000000127e+03,3.003055399999999864e+01
2.557891602000000148e+03,3.885515199999999680e+01
2.556475586000000021e+03,2.648675000000000068e+01
2.555059569999999894e+03,2.295050399999999868e+01
2.553643555000000106e+03,2.471088800000000063e+01
2.552226563000000169e+03,2.647055200000000141e+01
2.550809569999999894e+03,3.175818299999999894e+01
2.549392577999999958e+03,2.998771899999999846e+01
2.547974608999999873e+03,2.821797400000000167e+01
2.546556641000000127e+03,2.115916100000000100e+01
2.545138672000000042e+03,3.349516299999999802e+01
2.543720702999999958e+03,2.643814700000000073e+01
2.542301758000000063e+03,3.171929400000000143e+01
2.540882813000000169e+03,2.290369799999999856e+01
2.539463866999999937e+03,2.289901499999999857e+01
2.538043944999999894e+03,3.169984399999999880e+01
2.536624022999999852e+03,2.817187699999999850e+01
2.535204102000000148e+03,2.640573099999999940e+01
2.533783202999999958e+03,3.168039299999999869e+01
2.532362305000000106e+03,2.287560099999999963e+01
2.530941405999999915e+03,2.638951899999999995e+01
2.529520508000000063e+03,3.166093800000000158e+01
2.528098633000000063e+03,3.693019499999999766e+01
2.526676758000000063e+03,2.461508399999999952e+01
2.525254883000000063e+03,2.812575899999999862e+01
2.523832030999999915e+03,3.339249000000000223e+01
2.522409180000000106e+03,2.284281000000000006e+01
2.520986327999999958e+03,1.932456600000000080e+01
2.519563477000000148e+03,3.161552999999999969e+01
2.518139647999999852e+03,2.458481000000000094e+01
2.516715819999999894e+03,3.862534300000000087e+01
2.515291016000000127e+03,2.633005500000000154e+01
2.513867188000000169e+03,3.685450699999999813e+01
2.512442383000000063e+03,4.386539799999999900e+01
2.511016602000000148e+03,2.631383100000000042e+01
2.509591797000000042e+03,3.507789600000000263e+01
2.508166016000000127e+03,3.156361800000000173e+01
2.506740233999999873e+03,3.856982399999999700e+01
2.505313477000000148e+03,3.155063799999999929e+01
2.503886719000000085e+03,3.680150600000000338e+01
2.502459961000000021e+03,2.803347199999999972e+01
2.501033202999999958e+03,4.028982200000000091e+01
2.499605469000000085e+03,3.152467299999999994e+01
2.498177733999999873e+03,3.151818099999999845e+01
2.496750000000000000e+03,4.026493800000000078e+01
2.495321288999999979e+03,3.150519800000000004e+01
2.493892577999999958e+03,3.324863400000000269e+01
2.492463866999999937e+03,4.198961599999999805e+01
2.491034180000000106e+03,3.673334100000000291e+01
2.489605469000000085e+03,3.847460900000000095e+01
2.488174805000000106e+03,4.720910299999999893e+01
2.486745116999999937e+03,3.845873999999999882e+01
2.485314452999999958e+03,2.621645499999999984e+01
2.483883788999999979e+03,4.193767199999999917e+01
2.482453125000000000e+03,4.542309600000000103e+01
2.481021483999999873e+03,4.541371500000000339e+01
2.479589844000000085e+03,4.016537499999999739e+01
2.478158202999999958e+03,3.142727700000000013e+01
2.476726563000000169e+03,4.014877700000000260e+01
2.475293944999999894e+03,5.061190799999999967e+01
2.473861327999999958e+03,4.362193299999999851e+01
2.472427733999999873e+03,5.756904600000000016e+01
2.470994141000000127e+03,4.360389299999999935e+01
2.469560547000000042e+03,6.103281799999999890e+01
2.468126952999999958e+03,5.230301999999999651e+01
2.466692383000000063e+03,6.797985099999999647e+01
2.465257813000000169e+03,5.228136800000000051e+01
2.463823241999999937e+03,6.272464800000000196e+01
2.462387694999999894e+03,6.271165500000000037e+01
2.460953125000000000e+03,6.618192299999999761e+01
2.459516602000000148e+03,7.835708599999999535e+01
2.458081055000000106e+03,6.615449499999999716e+01
2.456644530999999915e+03,8.180570199999999659e+01
2.455208008000000063e+03,5.916632100000000349e+01
2.453771483999999873e+03,7.133282499999999970e+01
2.452333983999999873e+03,6.088124100000000283e+01
2.450896483999999873e+03,6.956412500000000421e+01
2.449458008000000063e+03,5.563974799999999732e+01
2.448020508000000063e+03,6.084334199999999981e+01
2.446582030999999915e+03,4.692654799999999682e+01
2.445143555000000106e+03,5.734275399999999934e+01
2.443704102000000148e+03,5.211894999999999811e+01
2.442264647999999852e+03,4.168649700000000280e+01
2.440825194999999894e+03,3.820468100000000078e+01
2.439385741999999937e+03,2.777944600000000008e+01
2.437945313000000169e+03,2.777366999999999919e+01
2.436504883000000063e+03,2.950338899999999853e+01
2.435063477000000148e+03,2.429185500000000175e+01
2.433623047000000042e+03,3.469543099999999924e+01
2.432181641000000127e+03,3.295380000000000109e+01
2.430739258000000063e+03,3.988313699999999784e+01
2.429297852000000148e+03,3.294008300000000133e+01
2.427855469000000085e+03,3.466655000000000086e+01
2.426413086000000021e+03,2.772746499999999870e+01
2.424969727000000148e+03,3.118689900000000037e+01
2.423526366999999937e+03,3.984162500000000051e+01
2.422083008000000063e+03,2.771013599999999855e+01
2.420639647999999852e+03,2.597283699999999840e+01
2.419195313000000169e+03,1.904277599999999993e+01
2.417750977000000148e+03,1.903880499999999998e+01
2.416305663999999979e+03,2.249571399999999954e+01
2.414861327999999958e+03,2.941133500000000112e+01
2.413416016000000127e+03,1.210802299999999931e+01
2.411969727000000148e+03,2.248163399999999967e+01
2.410524413999999979e+03,2.420593600000000123e+01
2.409078125000000000e+03,2.592951800000000162e+01
2.407630858999999873e+03,2.592410299999999879e+01
2.406183594000000085e+03,2.764659899999999837e+01
2.404736327999999958e+03,2.418571999999999989e+01
2.403289063000000169e+03,2.590785800000000094e+01
2.401841797000000042e+03,3.108293199999999956e+01
2.400394530999999915e+03,2.762349499999999836e+01
2.398945313000000169e+03,2.243939800000000062e+01
2.397498047000000042e+03,1.898321200000000175e+01
2.396048827999999958e+03,2.415539700000000067e+01
2.394599608999999873e+03,2.587536800000000170e+01
2.393148438000000169e+03,2.586995299999999887e+01
2.391699219000000085e+03,2.931314499999999867e+01
2.390250000000000000e+03,3.447883199999999704e+01
2.388798827999999958e+03,3.102445200000000014e+01
2.387347655999999915e+03,2.067863699999999838e+01
2.385896483999999873e+03,2.239716299999999904e+01
2.384445313000000169e+03,2.755996299999999977e+01
2.382994141000000127e+03,3.444273400000000152e+01
2.381541016000000127e+03,2.582663700000000162e+01
2.380089844000000085e+03,2.065697899999999976e+01
2.378636719000000085e+03,2.581580900000000156e+01
2.377183594000000085e+03,2.236900899999999837e+01
2.375730469000000085e+03,2.064398399999999967e+01
2.374277344000000085e+03,2.751953900000000175e+01
2.372824219000000085e+03,1.891571199999999919e+01
2.371369141000000127e+03,1.891174099999999925e+01
2.369914063000000169e+03,1.718888300000000058e+01
2.368460938000000169e+03,2.062233000000000160e+01
2.367005858999999873e+03,2.061799800000000005e+01
2.365550780999999915e+03,2.576708400000000054e+01
2.364093750000000000e+03,2.747911600000000121e+01
2.362638672000000042e+03,2.403917500000000018e+01
2.361181641000000127e+03,2.403412199999999999e+01
2.359724608999999873e+03,1.887998400000000032e+01
2.358269530999999915e+03,2.059201600000000099e+01
2.356810547000000042e+03,2.401896699999999996e+01
2.355353516000000127e+03,1.886807400000000001e+01
2.353896483999999873e+03,2.400886200000000059e+01
2.352437500000000000e+03,1.886013600000000068e+01
2.350980469000000085e+03,1.714197199999999910e+01
2.349521483999999873e+03,1.371068999999999960e+01
2.348062500000000000e+03,2.056170499999999990e+01
2.346603516000000127e+03,2.398360399999999970e+01
2.345142577999999958e+03,1.884029200000000159e+01
2.343683594000000085e+03,2.568589599999999962e+01
2.342222655999999915e+03,1.883235499999999973e+01
2.340761719000000085e+03,2.054005799999999837e+01
2.339300780999999915e+03,2.738097199999999987e+01
2.337839844000000085e+03,2.395329999999999870e+01
2.336378905999999915e+03,2.565884000000000142e+01
2.334916016000000127e+03,2.394319899999999990e+01
2.333455077999999958e+03,2.222828099999999907e+01
2.331992188000000169e+03,2.222359300000000104e+01
2.330529297000000042e+03,1.538231799999999971e+01
2.329066405999999915e+03,2.050542799999999843e+01
2.327603516000000127e+03,2.391795199999999966e+01
2.326138672000000042e+03,2.562096599999999924e+01
2.324675780999999915e+03,2.732325900000000019e+01
2.323210938000000169e+03,1.878077299999999994e+01
2.321746094000000085e+03,2.731172000000000111e+01
2.320281250000000000e+03,2.047946200000000161e+01
2.318816405999999915e+03,1.706261299999999892e+01
2.317351563000000169e+03,2.558850899999999839e+01
2.315884766000000127e+03,1.364432000000000045e+01
2.314419922000000042e+03,2.557769199999999898e+01
2.312953125000000000e+03,1.022891300000000037e+01
2.311486327999999958e+03,1.193120900000000084e+01
2.310019530999999915e+03,1.533688000000000073e+01
2.308550780999999915e+03,2.725979600000000147e+01
2.307083983999999873e+03,1.703376799999999847e+01
2.305615233999999873e+03,2.043619500000000144e+01
2.304148438000000169e+03,1.702655800000000141e+01
2.302679688000000169e+03,1.361836100000000016e+01
2.301210938000000169e+03,2.042321799999999854e+01
2.299740233999999873e+03,1.871731799999999879e+01
2.298271483999999873e+03,2.041456600000000066e+01
2.296800780999999915e+03,2.041024200000000022e+01
2.295332030999999915e+03,2.210640899999999931e+01
2.293861327999999958e+03,2.210172499999999829e+01
2.292390625000000000e+03,1.699772300000000058e+01
2.290919922000000042e+03,2.379176500000000161e+01
2.289447266000000127e+03,1.699051499999999848e+01
2.287976563000000169e+03,1.698691200000000023e+01
2.286503905999999915e+03,1.868163900000000055e+01
2.285031250000000000e+03,1.867767500000000069e+01
2.283558594000000085e+03,2.716176199999999952e+01
2.282085938000000169e+03,2.206424900000000022e+01
2.280613280999999915e+03,1.866578499999999963e+01
2.279138672000000042e+03,1.357223499999999916e+01
2.277666016000000127e+03,2.374636699999999934e+01
2.276191405999999915e+03,2.374132300000000129e+01
2.274716797000000042e+03,2.373628000000000071e+01
2.273242188000000169e+03,1.864597300000000146e+01
2.271765625000000000e+03,1.864201200000000114e+01
2.270291016000000127e+03,2.033241699999999952e+01
2.268814452999999958e+03,2.032809400000000011e+01
2.267339844000000085e+03,2.032377400000000023e+01
2.265863280999999915e+03,2.539931500000000142e+01
2.264386719000000085e+03,1.015756499999999996e+01
2.262908202999999958e+03,1.692567400000000077e+01
2.261431641000000127e+03,2.199869500000000144e+01
2.259953125000000000e+03,1.691847399999999979e+01
2.258476563000000169e+03,1.522338599999999964e+01
2.256998047000000042e+03,2.029352799999999846e+01
2.255519530999999915e+03,1.352613799999999955e+01
2.254039063000000169e+03,2.197529400000000166e+01
2.252560547000000042e+03,1.521042500000000075e+01
2.251082030999999915e+03,2.196593500000000176e+01
2.249601563000000169e+03,1.689327400000000168e+01
2.248121094000000085e+03,1.857864199999999855e+01
2.246640625000000000e+03,2.195189900000000094e+01
2.245160155999999915e+03,1.688247700000000151e+01
2.243677733999999873e+03,1.012732699999999930e+01
2.242197266000000127e+03,2.025033600000000078e+01
2.240714844000000085e+03,2.193318599999999918e+01
2.239232422000000042e+03,2.361531599999999997e+01
2.237750000000000000e+03,1.855093400000000159e+01
2.236267577999999958e+03,2.529132999999999853e+01
2.234785155999999915e+03,2.360020400000000151e+01
2.233302733999999873e+03,2.696590600000000038e+01
2.231818358999999873e+03,1.685009399999999857e+01
2.230333983999999873e+03,2.863904600000000045e+01
2.228849608999999873e+03,3.031722099999999998e+01
2.227365233999999873e+03,2.189109399999999894e+01
2.225880858999999873e+03,1.851927799999999991e+01
2.224394530999999915e+03,2.188174400000000119e+01
2.222910155999999915e+03,1.682851399999999842e+01
2.221423827999999958e+03,3.364983699999999800e+01
2.219937500000000000e+03,2.018558700000000172e+01
2.218451172000000042e+03,2.018127300000000091e+01
2.216964844000000085e+03,2.017695799999999906e+01
2.215476563000000169e+03,2.353475200000000100e+01
2.213990233999999873e+03,2.352971799999999902e+01
2.212501952999999958e+03,1.512301300000000026e+01
2.211013672000000042e+03,2.351965300000000170e+01
2.209525391000000127e+03,1.511654200000000081e+01
2.208037108999999873e+03,2.015107499999999874e+01
2.206546875000000000e+03,2.686234999999999928e+01
2.205058594000000085e+03,2.182098799999999983e+01
2.203568358999999873e+03,2.013813800000000143e+01
2.202078125000000000e+03,2.684510200000000069e+01
2.200587891000000127e+03,1.677459500000000148e+01
2.199097655999999915e+03,1.509390299999999918e+01
2.197605469000000085e+03,1.676741000000000170e+01
2.196115233999999873e+03,2.346934299999999851e+01
2.194623047000000042e+03,1.340817900000000051e+01
2.193130858999999873e+03,2.178362299999999863e+01
2.191638672000000042e+03,1.172712800000000044e+01
2.190146483999999873e+03,1.339955900000000000e+01
2.188654297000000042e+03,1.842044299999999879e+01
2.187160155999999915e+03,2.343917300000000026e+01
2.185666016000000127e+03,2.008640899999999974e+01
2.184171875000000000e+03,3.347016500000000150e+01
2.182677733999999873e+03,1.840464199999999906e+01
2.181183594000000085e+03,1.840069199999999938e+01
2.179689452999999958e+03,2.675890000000000057e+01
2.178193358999999873e+03,1.839279399999999853e+01
2.176699219000000085e+03,2.006055800000000033e+01
2.175203125000000000e+03,2.005625200000000063e+01
2.173707030999999915e+03,2.172293900000000022e+01
2.172210938000000169e+03,2.171827299999999994e+01
2.170712891000000127e+03,1.336222000000000065e+01
2.169216797000000042e+03,2.170894200000000041e+01
2.167718750000000000e+03,1.168691800000000036e+01
2.166220702999999958e+03,1.502280799999999950e+01
2.164722655999999915e+03,2.336378900000000058e+01
2.163224608999999873e+03,1.668483399999999861e+01
2.161726563000000169e+03,1.501312099999999994e+01
2.160226563000000169e+03,1.334212600000000037e+01
2.158728516000000127e+03,3.668295299999999770e+01
2.157228516000000127e+03,2.000458000000000069e+01
2.155728516000000127e+03,2.666703400000000101e+01
2.154228516000000127e+03,2.666129499999999908e+01
2.152726563000000169e+03,2.665555799999999920e+01
2.151226563000000169e+03,1.832175099999999901e+01
2.149724608999999873e+03,1.831780600000000092e+01
2.148222655999999915e+03,2.164365600000000001e+01
2.146720702999999958e+03,1.997445700000000102e+01
2.145218750000000000e+03,2.163433500000000009e+01
2.143716797000000042e+03,1.331056799999999996e+01
2.142212891000000127e+03,1.829808799999999991e+01
2.140710938000000169e+03,2.993587300000000084e+01
2.139207030999999915e+03,1.496471099999999943e+01
2.137703125000000000e+03,2.493580800000000153e+01
2.136199219000000085e+03,1.994434499999999844e+01
2.134695313000000169e+03,1.661670499999999961e+01
2.133189452999999958e+03,2.325836899999999829e+01
2.131683594000000085e+03,1.827049299999999832e+01
2.130179688000000169e+03,1.328476399999999913e+01
2.128673827999999958e+03,2.158308399999999949e+01
2.127167969000000085e+03,2.655806499999999915e+01
2.125660155999999915e+03,1.327616699999999916e+01
2.124154297000000042e+03,1.990995200000000054e+01
2.122646483999999873e+03,1.658804500000000104e+01
2.121138672000000042e+03,1.492601699999999987e+01
2.119630858999999873e+03,1.658088100000000153e+01
2.118123047000000042e+03,1.823503099999999932e+01
2.116615233999999873e+03,2.154583500000000029e+01
2.115105469000000085e+03,1.491312500000000085e+01
2.113597655999999915e+03,1.822321499999999972e+01
2.112087891000000127e+03,2.153187199999999990e+01
2.110578125000000000e+03,1.821534000000000120e+01
2.109068358999999873e+03,1.324465600000000087e+01
2.107558594000000085e+03,1.820746400000000165e+01
2.106046875000000000e+03,2.647785800000000123e+01
2.104535155999999915e+03,1.819959100000000163e+01
2.103025391000000127e+03,9.924901999999999447e+00
2.101513672000000042e+03,1.819171700000000058e+01
2.100000000000000000e+03,1.322747700000000037e+01
2.098488280999999915e+03,1.983692399999999978e+01
2.096976563000000169e+03,8.263595999999999719e+00
2.095462891000000127e+03,1.652361300000000099e+01
2.093949219000000085e+03,3.138806900000000155e+01
2.092435547000000042e+03,1.981975200000000115e+01
2.090921875000000000e+03,2.146674700000000158e+01
2.089408202999999958e+03,1.650930599999999870e+01
2.087892577999999958e+03,1.980687700000000007e+01
2.086378905999999915e+03,1.980258600000000158e+01
2.084863280999999915e+03,1.814843600000000023e+01
2.083347655999999915e+03,2.804150599999999827e+01
2.081832030999999915e+03,1.814057199999999881e+01
2.080314452999999958e+03,1.813663899999999884e+01
2.078798827999999958e+03,2.307798999999999978e+01
2.077281250000000000e+03,1.483263299999999951e+01
2.075763672000000042e+03,1.977255399999999952e+01
2.074246094000000085e+03,1.647355500000000106e+01
2.072728516000000127e+03,1.811698000000000164e+01
2.071210938000000169e+03,2.634625199999999978e+01
2.069691405999999915e+03,2.140168600000000154e+01
2.068173827999999958e+03,2.139704100000000153e+01
2.066654297000000042e+03,1.316455200000000048e+01
2.065134766000000127e+03,2.467817499999999953e+01
2.063615233999999873e+03,1.973825300000000027e+01
2.062093750000000000e+03,2.137846400000000102e+01
2.060574219000000085e+03,2.959452100000000030e+01
2.059052733999999873e+03,2.465674399999999977e+01
2.057531250000000000e+03,1.807768400000000142e+01
2.056009766000000127e+03,2.957523499999999927e+01
2.054488280999999915e+03,2.628338600000000014e+01
2.052966797000000042e+03,1.970825400000000016e+01
2.051443358999999873e+03,1.970397000000000176e+01
2.049919922000000042e+03,1.805804600000000093e+01
2.048396483999999873e+03,2.133668499999999923e+01
2.046873047000000042e+03,2.953667799999999843e+01
2.045349609000000100e+03,2.296797600000000017e+01
2.043826172000000042e+03,2.296297799999999967e+01
2.042300780999999915e+03,2.131812700000000049e+01
2.040775390999999900e+03,1.803448900000000066e+01
2.039251952999999958e+03,1.966970600000000147e+01
2.037726562999999942e+03,1.638785400000000081e+01
2.036199219000000085e+03,2.293799999999999883e+01
2.034673827999999958e+03,1.965686200000000028e+01
2.033146484000000100e+03,2.620344199999999901e+01
2.031621094000000085e+03,2.292301799999999901e+01
2.030093750000000000e+03,2.619202800000000053e+01
2.028566405999999915e+03,3.109625600000000034e+01
2.027037109000000100e+03,2.127174899999999980e+01
2.025509765999999900e+03,2.290304599999999979e+01
2.023980469000000085e+03,3.107592999999999961e+01
2.022453125000000000e+03,2.779871699999999990e+01
2.020923827999999958e+03,1.961834699999999998e+01
2.019392577999999958e+03,1.961406900000000064e+01
2.017863280999999915e+03,2.287808800000000176e+01
2.016333984000000100e+03,2.614068400000000025e+01
2.014802734000000100e+03,2.613498099999999980e+01
2.013271484000000100e+03,2.449619900000000072e+01
2.011740234000000100e+03,1.469451100000000032e+01
2.010208984000000100e+03,2.122077399999999869e+01
2.008677734000000100e+03,2.121614100000000036e+01
2.007144530999999915e+03,2.121151000000000053e+01
2.005613280999999915e+03,2.773207100000000125e+01
2.004080077999999958e+03,1.957130400000000137e+01
2.002546875000000000e+03,2.119761499999999899e+01
2.001013672000000042e+03,2.771390299999999840e+01
1.999478515999999900e+03,1.792860800000000054e+01
1.997945312999999942e+03,2.770179399999999958e+01
1.996410155999999915e+03,1.954993400000000037e+01
1.994875000000000000e+03,1.628804999999999836e+01
1.993339844000000085e+03,2.279828499999999991e+01
1.991804687999999942e+03,2.279330099999999959e+01
1.990269530999999915e+03,2.441605399999999904e+01
1.988732422000000042e+03,1.952856999999999843e+01
1.987197265999999900e+03,2.603239800000000059e+01
1.985660155999999915e+03,2.277336499999999830e+01
1.984123047000000042e+03,1.951575700000000069e+01
1.982583984000000100e+03,2.438935700000000040e+01
1.981046875000000000e+03,2.600961900000000071e+01
1.979507812999999942e+03,1.950294500000000042e+01
1.977970702999999958e+03,2.437334299999999843e+01
1.976431640999999900e+03,1.949440399999999940e+01
1.974892577999999958e+03,2.761102500000000148e+01
1.973351562999999942e+03,2.273351100000000002e+01
1.971812500000000000e+03,2.435199700000000078e+01
1.970271484000000100e+03,1.785421799999999948e+01
1.968732422000000042e+03,3.407785799999999909e+01
1.967191405999999915e+03,2.271359299999999948e+01
1.965648437999999942e+03,2.433065600000000117e+01
1.964107422000000042e+03,2.108194500000000104e+01
1.962566405999999915e+03,1.945599199999999840e+01
1.961023437999999942e+03,3.079856300000000147e+01
1.959480469000000085e+03,1.944745800000000102e+01
1.957937500000000000e+03,2.430398900000000140e+01
1.956394530999999915e+03,2.591856800000000050e+01
1.954851562999999942e+03,1.781510499999999908e+01
1.953306640999999900e+03,1.943039500000000075e+01
1.951763672000000042e+03,2.266381799999999913e+01
1.950218750000000000e+03,1.942186500000000038e+01
1.948673827999999958e+03,2.427200099999999949e+01
1.947126952999999958e+03,2.426667000000000129e+01
1.945582030999999915e+03,2.264391900000000035e+01
1.944035155999999915e+03,9.702405000000000612e+00
1.942490234000000100e+03,1.293369799999999969e+01
1.940943359000000100e+03,1.616356800000000149e+01
1.939396484000000100e+03,2.100802200000000042e+01
1.937849609000000100e+03,2.423469700000000060e+01
1.936300780999999915e+03,1.938349499999999992e+01
1.934751952999999958e+03,2.260910600000000059e+01
1.933205077999999958e+03,2.583329799999999921e+01
1.931656250000000000e+03,2.421339000000000041e+01
1.930107422000000042e+03,1.129709599999999980e+01
1.928556640999999900e+03,1.613515900000000158e+01
1.927007812999999942e+03,3.065005499999999827e+01
1.925457030999999915e+03,1.128964000000000034e+01
1.923906250000000000e+03,1.289960699999999960e+01
1.922355469000000085e+03,1.612095800000000168e+01
1.920804687999999942e+03,1.934089099999999917e+01
1.919253905999999915e+03,1.933663200000000160e+01
1.917701172000000042e+03,2.094340499999999849e+01
1.916150390999999900e+03,2.577082100000000153e+01
1.914597655999999915e+03,1.771353500000000025e+01
1.913044922000000042e+03,2.092956500000000020e+01
1.911492187999999942e+03,2.575378999999999863e+01
1.909937500000000000e+03,2.574811199999999900e+01
1.908384765999999900e+03,1.608902399999999844e+01
1.906830077999999958e+03,1.608547599999999989e+01
1.905275390999999900e+03,1.447373600000000060e+01
1.903720702999999958e+03,1.929405799999999971e+01
1.902166015999999900e+03,3.054218699999999842e+01
1.900609375000000000e+03,2.571406199999999842e+01
1.899052734000000100e+03,1.767451700000000159e+01
1.897498047000000042e+03,2.088345500000000143e+01
1.895941405999999915e+03,2.569704199999999972e+01
1.894382812999999942e+03,2.569136999999999915e+01
1.892826172000000042e+03,2.086962899999999976e+01
1.891269530999999915e+03,1.605001599999999939e+01
1.889710937999999942e+03,2.567435299999999998e+01
1.888152344000000085e+03,6.417170999999999736e+00
1.886593750000000000e+03,3.368270100000000156e+01
1.885035155999999915e+03,2.886450800000000072e+01
1.883474609000000100e+03,1.763552299999999917e+01
1.881916015999999900e+03,2.885175100000000015e+01
1.880355469000000085e+03,2.564033099999999976e+01
1.878794922000000042e+03,2.403249500000000083e+01
1.877234375000000000e+03,2.242536899999999989e+01
1.875673827999999958e+03,2.882624099999999956e+01
1.874111327999999958e+03,1.921324299999999852e+01
1.872550780999999915e+03,1.920899199999999851e+01
1.870988280999999915e+03,2.240553299999999837e+01
1.869425780999999915e+03,2.720069700000000168e+01
1.867863280999999915e+03,3.039404899999999898e+01
1.866300780999999915e+03,2.718865600000000171e+01
1.864736327999999958e+03,3.357854799999999784e+01
1.863171875000000000e+03,2.557799100000000081e+01
1.861607422000000042e+03,3.036713599999999857e+01
1.860042969000000085e+03,2.077291100000000057e+01
1.858478515999999900e+03,1.757318499999999872e+01
1.856914062999999942e+03,2.715253999999999834e+01
1.855347655999999915e+03,3.034023099999999928e+01
1.853781250000000000e+03,2.554400400000000104e+01
1.852216797000000042e+03,3.192292600000000036e+01
1.850648437999999942e+03,3.191584800000000044e+01
1.849082030999999915e+03,1.914526199999999889e+01
1.847515625000000000e+03,1.914101399999999842e+01
1.845947265999999900e+03,1.913676800000000000e+01
1.844378905999999915e+03,2.710440600000000089e+01
1.842810547000000042e+03,3.347448299999999932e+01
1.841242187999999942e+03,1.753036099999999919e+01
1.839673827999999958e+03,2.230641599999999869e+01
1.838103515999999900e+03,1.592961700000000036e+01
1.836533202999999958e+03,2.388911799999999985e+01
1.834964844000000085e+03,2.866057599999999894e+01
1.833392577999999958e+03,2.069470600000000005e+01
1.831822265999999900e+03,1.909856200000000115e+01
1.830251952999999958e+03,2.068551100000000176e+01
1.828679687999999942e+03,1.431755500000000048e+01
1.827107422000000042e+03,1.908583099999999888e+01
1.825535155999999915e+03,2.544211599999999862e+01
1.823962890999999900e+03,3.179557399999999845e+01
1.822390625000000000e+03,1.430482600000000026e+01
1.820816405999999915e+03,1.271257300000000079e+01
1.819244140999999900e+03,1.270974400000000060e+01
1.817669922000000042e+03,2.223710399999999865e+01
1.816095702999999958e+03,9.528067000000000064e+00
1.814521484000000100e+03,3.175315099999999902e+01
1.812945312999999942e+03,2.063495400000000046e+01
1.811371094000000085e+03,2.221731000000000122e+01
1.809794922000000042e+03,2.855875199999999836e+01
1.808218750000000000e+03,2.220741500000000102e+01
1.806642577999999958e+03,2.537424899999999894e+01
1.805066405999999915e+03,2.378305800000000048e+01
1.803488280999999915e+03,2.219257400000000047e+01
1.801910155999999915e+03,2.535728800000000049e+01
1.800333984000000100e+03,2.059820399999999907e+01
1.798755859000000100e+03,2.059361099999999922e+01
1.797175780999999915e+03,2.375655899999999932e+01
1.795597655999999915e+03,2.375126099999999951e+01
1.794017577999999958e+03,2.057983400000000174e+01
1.792439452999999958e+03,1.740982100000000088e+01
1.790859375000000000e+03,1.265886199999999917e+01
1.789279297000000042e+03,2.531207300000000160e+01
1.787697265999999900e+03,1.581651399999999974e+01
1.786117187999999942e+03,2.055687700000000007e+01
1.784535155999999915e+03,2.687606800000000007e+01
1.782953125000000000e+03,1.738651300000000077e+01
1.781371094000000085e+03,1.896286800000000028e+01
1.779789062999999942e+03,1.737874400000000108e+01
1.778207030999999915e+03,2.211346100000000092e+01
1.776623047000000042e+03,2.368769599999999897e+01
1.775041015999999900e+03,1.894592099999999846e+01
1.773457030999999915e+03,1.578473800000000082e+01
1.771873047000000042e+03,9.468724999999999170e+00
1.770287109000000100e+03,2.524428599999999889e+01
1.768703125000000000e+03,1.419673300000000005e+01
1.767117187999999942e+03,1.892474400000000045e+01
1.765531250000000000e+03,1.576708999999999961e+01
1.763945312999999942e+03,2.364534199999999942e+01
1.762359375000000000e+03,1.733603499999999897e+01
1.760773437999999942e+03,1.102955200000000069e+01
1.759185547000000042e+03,2.205416500000000113e+01
1.757599609000000100e+03,1.732439000000000107e+01
1.756011719000000085e+03,1.574591799999999964e+01
1.754423827999999958e+03,1.731662899999999894e+01
1.752833984000000100e+03,2.203440700000000163e+01
1.751246094000000085e+03,2.517653500000000122e+01
1.749656250000000000e+03,2.831725099999999884e+01
1.748066405999999915e+03,2.516524700000000081e+01
1.746476562999999942e+03,2.044217700000000093e+01
1.744886719000000085e+03,2.200971399999999889e+01
1.743296875000000000e+03,2.200477599999999967e+01
1.741705077999999958e+03,7.857084999999999653e+00
1.740115234000000100e+03,1.728170799999999829e+01
1.738523437999999942e+03,1.570711700000000022e+01
1.736931640999999900e+03,2.355538599999999860e+01
1.735337890999999900e+03,1.727007100000000150e+01
1.733746094000000085e+03,1.412688400000000044e+01
1.732152344000000085e+03,2.353951800000000105e+01
1.730558594000000085e+03,2.039633200000000102e+01
1.728964844000000085e+03,2.196034399999999920e+01
1.727371094000000085e+03,2.195540799999999848e+01
1.725777344000000085e+03,1.411101799999999962e+01
1.724181640999999900e+03,2.194553799999999910e+01
1.722585937999999942e+03,1.567185899999999954e+01
1.720992187999999942e+03,2.193566699999999869e+01
1.719394530999999915e+03,1.879776999999999987e+01
1.717798827999999958e+03,6.264512999999999998e+00
1.716203125000000000e+03,2.192086199999999963e+01
1.714605469000000085e+03,2.974304599999999965e+01
1.713007812999999942e+03,2.504113600000000162e+01
1.711410155999999915e+03,1.564718500000000034e+01
1.709812500000000000e+03,1.720802700000000129e+01
1.708212890999999900e+03,2.346020499999999842e+01
1.706615234000000100e+03,2.501858100000000107e+01
1.705015625000000000e+03,1.563308900000000001e+01
1.703416015999999900e+03,2.188139200000000173e+01
1.701816405999999915e+03,2.968947999999999965e+01
1.700216797000000042e+03,2.655828100000000092e+01
1.698615234000000100e+03,2.030469300000000032e+01
1.697013672000000042e+03,1.873856500000000125e+01
1.695414062999999942e+03,1.561194799999999994e+01
1.693810547000000042e+03,1.716926799999999886e+01
1.692208984000000100e+03,2.028637300000000110e+01
1.690607422000000042e+03,2.028179400000000143e+01
1.689003905999999915e+03,2.339678599999999875e+01
1.687400390999999900e+03,2.027263500000000107e+01
1.685796875000000000e+03,1.870897300000000030e+01
1.684193359000000100e+03,2.026347499999999968e+01
1.682589844000000085e+03,2.337565000000000026e+01
1.680984375000000000e+03,1.558024400000000043e+01
1.679378905999999915e+03,2.180741099999999832e+01
1.677775390999999900e+03,2.335979999999999990e+01
1.676167969000000085e+03,1.712664600000000092e+01
1.674562500000000000e+03,2.334923600000000121e+01
1.672957030999999915e+03,1.556263399999999919e+01
1.671349609000000100e+03,2.178275899999999865e+01
1.669742187999999942e+03,2.955562400000000167e+01
1.668134765999999900e+03,2.177289800000000142e+01
1.666527344000000085e+03,1.710340300000000013e+01
1.664917969000000085e+03,1.709952900000000042e+01
1.663310547000000042e+03,2.175810800000000000e+01
1.661701172000000042e+03,1.864558200000000099e+01
1.660091797000000042e+03,2.796203399999999917e+01
1.658482422000000042e+03,2.329641300000000115e+01
1.656873047000000042e+03,3.260758599999999774e+01
1.655261719000000085e+03,2.639063099999999906e+01
1.653650390999999900e+03,2.328057099999999835e+01
1.652039062999999942e+03,2.793034700000000115e+01
1.650427734000000100e+03,3.257801099999999650e+01
1.648816405999999915e+03,2.481570999999999927e+01
1.647205077999999958e+03,2.325944700000000154e+01
1.645591797000000042e+03,2.325416600000000145e+01
1.643978515999999900e+03,2.789866299999999910e+01
1.642365234000000100e+03,2.789232600000000062e+01
1.640751952999999958e+03,2.943521099999999890e+01
1.639136719000000085e+03,2.168417499999999976e+01
1.637523437999999942e+03,2.322776400000000052e+01
1.635908202999999958e+03,2.477065100000000086e+01
1.634292969000000085e+03,3.250408600000000092e+01
1.632677734000000100e+03,2.166446300000000136e+01
1.631062500000000000e+03,3.094219400000000064e+01
1.629445312999999942e+03,3.093515400000000071e+01
1.627828125000000000e+03,4.793857599999999763e+01
1.626210937999999942e+03,2.628291300000000064e+01
1.624593750000000000e+03,2.782263199999999870e+01
1.622976562999999942e+03,4.636049700000000229e+01
1.621357422000000042e+03,4.016994499999999846e+01
1.619740234000000100e+03,3.707150299999999987e+01
1.618121094000000085e+03,3.397446800000000167e+01
1.616501952999999958e+03,4.940614699999999715e+01
1.614882812999999942e+03,4.630770100000000156e+01
1.613261719000000085e+03,5.092686100000000238e+01
1.611642577999999958e+03,4.320081299999999658e+01
1.610021484000000100e+03,4.164842600000000061e+01
1.608400390999999900e+03,5.397638299999999845e+01
1.606779297000000042e+03,4.162942100000000067e+01
1.605156250000000000e+03,5.703470599999999990e+01
1.603535155999999915e+03,5.856281299999999845e+01
1.601912109000000100e+03,6.471254000000000417e+01
1.600289062999999942e+03,9.088494900000000598e+01
1.598666015999999900e+03,7.700354799999999500e+01
1.597042969000000085e+03,1.062406079999999946e+02
1.595417969000000085e+03,1.154525299999999959e+02
1.593792969000000085e+03,1.646746219999999994e+02
1.592167969000000085e+03,1.938715819999999894e+02
1.590542969000000085e+03,2.245934750000000122e+02
1.588917969000000085e+03,3.198955690000000232e+02
1.587292969000000085e+03,3.674882200000000125e+02
1.585666015999999900e+03,4.750120239999999967e+02
1.584039062999999942e+03,4.641449579999999742e+02
1.582412109000000100e+03,4.456000670000000241e+02
1.580785155999999915e+03,3.886586300000000165e+02
1.579158202999999958e+03,3.194564209999999775e+02
1.577529297000000042e+03,2.533568879999999979e+02
1.575900390999999900e+03,2.133850710000000106e+02
1.574271484000000100e+03,1.688271790000000010e+02
1.572642577999999958e+03,1.534440610000000049e+02
1.571013672000000042e+03,1.150566560000000038e+02
1.569382812999999942e+03,9.969289399999999546e+01
1.567751952999999958e+03,9.813664199999999482e+01
1.566121094000000085e+03,7.818468500000000176e+01
1.564490234000000100e+03,6.590528899999999624e+01
1.562859375000000000e+03,5.976084500000000332e+01
1.561226562999999942e+03,5.208723100000000272e+01
1.559595702999999958e+03,4.594876500000000163e+01
1.557962890999999900e+03,4.900075499999999806e+01
1.556330077999999958e+03,4.898949400000000054e+01
1.554695312999999942e+03,3.367253500000000344e+01
1.553062500000000000e+03,4.743675600000000259e+01
1.551427734000000100e+03,4.589598099999999903e+01
1.549792969000000085e+03,3.517882500000000334e+01
1.548158202999999958e+03,3.058324400000000054e+01
1.546523437999999942e+03,2.751858500000000163e+01
1.544888672000000042e+03,3.056916800000000123e+01
1.543251952999999958e+03,2.903402300000000125e+01
1.541615234000000100e+03,3.361059999999999803e+01
1.539978515999999900e+03,2.291103899999999882e+01
1.538341797000000042e+03,3.664921600000000268e+01
1.536703125000000000e+03,2.290048200000000023e+01
1.535066405999999915e+03,2.747424300000000130e+01
1.533427734000000100e+03,3.814987200000000200e+01
1.531789062999999942e+03,2.746157300000000134e+01
1.530150390999999900e+03,3.050581899999999891e+01
1.528509765999999900e+03,3.354865999999999815e+01
1.526871094000000085e+03,2.744256800000000140e+01
1.525230469000000085e+03,2.133929300000000140e+01
1.523589844000000085e+03,3.200154500000000013e+01
1.521949219000000085e+03,2.742356099999999941e+01
1.520308594000000085e+03,2.894040499999999838e+01
1.518666015999999900e+03,2.284240899999999996e+01
1.517023437999999942e+03,2.283712799999999987e+01
1.515380859000000100e+03,3.348671000000000220e+01
1.513738280999999915e+03,2.434833899999999929e+01
1.512095702999999958e+03,2.129986999999999853e+01
1.510451172000000042e+03,2.890027600000000163e+01
1.508808594000000085e+03,2.737287299999999846e+01
1.507164062999999942e+03,4.104980499999999921e+01
1.505519530999999915e+03,3.192023299999999963e+01
1.503873047000000042e+03,1.975556800000000024e+01
1.502228515999999900e+03,3.038614099999999851e+01
1.500582030999999915e+03,3.493596300000000099e+01
1.498935547000000042e+03,2.277904300000000148e+01
1.497289062999999942e+03,2.732851399999999842e+01
1.495642577999999958e+03,2.580427699999999902e+01
1.493996094000000085e+03,2.276319900000000018e+01
1.492347655999999915e+03,2.730950199999999839e+01
1.490699219000000085e+03,2.275263599999999897e+01
1.489050780999999915e+03,2.729682499999999834e+01
1.487402344000000085e+03,3.183890200000000092e+01
1.485751952999999958e+03,2.425257699999999872e+01
1.484103515999999900e+03,2.424694099999999963e+01
1.482453125000000000e+03,2.878655200000000036e+01
1.480802734000000100e+03,2.575040200000000112e+01
1.479152344000000085e+03,1.968690499999999943e+01
1.477500000000000000e+03,2.725245299999999915e+01
1.475849609000000100e+03,1.816407600000000144e+01
1.474197265999999900e+03,2.572645199999999832e+01
1.472544922000000042e+03,2.420749700000000004e+01
1.470890625000000000e+03,3.025232499999999902e+01
1.469238280999999915e+03,1.965943100000000143e+01
1.467583984000000100e+03,2.570249899999999954e+01
1.465931640999999900e+03,1.965027200000000107e+01
1.464277344000000085e+03,3.173535199999999890e+01
1.462621094000000085e+03,3.021709800000000001e+01
1.460966797000000042e+03,2.416804099999999877e+01
1.459310547000000042e+03,2.718270499999999856e+01
1.457656250000000000e+03,2.415676699999999855e+01
1.456000000000000000e+03,1.811334799999999845e+01
1.454341797000000042e+03,1.810911899999999974e+01
1.452685547000000042e+03,2.866607700000000136e+01
1.451027344000000085e+03,2.262582799999999850e+01
1.449371094000000085e+03,2.714464999999999861e+01
1.447712890999999900e+03,2.110757100000000008e+01
1.446054687999999942e+03,2.713196200000000147e+01
1.444394530999999915e+03,1.657676700000000025e+01
1.442736327999999958e+03,4.218553500000000156e+01
1.441076172000000042e+03,2.259410899999999955e+01
1.439416015999999900e+03,3.011842700000000050e+01
1.437755859000000100e+03,2.860580799999999968e+01
1.436093750000000000e+03,3.010432600000000036e+01
1.434433594000000085e+03,2.407781999999999911e+01
1.432771484000000100e+03,1.504511300000000062e+01
1.431109375000000000e+03,1.955406199999999828e+01
1.429447265999999900e+03,1.954947900000000161e+01
1.427783202999999958e+03,2.255180199999999857e+01
1.426121094000000085e+03,1.803721000000000174e+01
1.424457030999999915e+03,1.803297799999999995e+01
1.422792969000000085e+03,3.004791300000000120e+01
1.421128905999999915e+03,2.703677199999999914e+01
1.419464844000000085e+03,2.703042400000000001e+01
1.417798827999999958e+03,2.852541400000000138e+01
1.416132812999999942e+03,1.651083399999999912e+01
1.414466797000000042e+03,2.250948100000000096e+01
1.412800780999999915e+03,2.400446900000000028e+01
1.411134765999999900e+03,2.699867800000000173e+01
1.409466797000000042e+03,3.299062299999999937e+01
1.407798827999999958e+03,2.398753500000000116e+01
1.406130859000000100e+03,2.847849499999999878e+01
1.404462890999999900e+03,2.097921399999999892e+01
1.402794922000000042e+03,2.846508400000000094e+01
1.401125000000000000e+03,2.696057100000000162e+01
1.399455077999999958e+03,1.796947899999999976e+01
1.397785155999999915e+03,2.994207199999999958e+01
1.396115234000000100e+03,1.796100799999999964e+01
1.394445312999999942e+03,2.992795399999999972e+01
1.392773437999999942e+03,2.393671600000000055e+01
1.391101562999999942e+03,1.495691700000000068e+01
1.389429687999999942e+03,2.691609599999999958e+01
1.387757812999999942e+03,2.840472600000000014e+01
1.386085937999999942e+03,2.690338500000000010e+01
1.384412109000000100e+03,2.241419000000000139e+01
1.382738280999999915e+03,2.987852499999999978e+01
1.381064452999999958e+03,3.584575699999999898e+01
1.379390625000000000e+03,2.090507900000000063e+01
1.377716797000000042e+03,2.836447000000000074e+01
1.376041015999999900e+03,2.537273000000000067e+01
1.374365234000000100e+03,3.282752599999999887e+01
1.372689452999999958e+03,2.536072000000000060e+01
1.371013672000000042e+03,2.833762199999999964e+01
1.369337890999999900e+03,2.385760700000000156e+01
1.367660155999999915e+03,2.683344800000000063e+01
1.365982422000000042e+03,2.533669499999999886e+01
1.364304687999999942e+03,3.874105099999999879e+01
1.362626952999999958e+03,2.979373899999999864e+01
1.360949219000000085e+03,2.382933600000000141e+01
1.359269530999999915e+03,3.275756100000000259e+01
1.357589844000000085e+03,3.870429200000000236e+01
1.355910155999999915e+03,4.167164600000000263e+01
1.354230469000000085e+03,4.166174699999999831e+01
1.352548827999999958e+03,3.421401600000000087e+01
1.350869140999999900e+03,4.164194899999999677e+01
1.349187500000000000e+03,4.609262100000000117e+01
1.347505859000000100e+03,6.094670899999999847e+01
1.345822265999999900e+03,6.539066300000000354e+01
1.344140625000000000e+03,6.834669499999999687e+01
1.342457030999999915e+03,6.535953499999999394e+01
1.340773437999999942e+03,7.722469300000000203e+01
1.339089844000000085e+03,8.314524799999999516e+01
1.337406250000000000e+03,6.976598400000000311e+01
1.335720702999999958e+03,7.123338300000000345e+01
1.334037109000000100e+03,5.341230000000000189e+01
1.332351562999999942e+03,4.598295600000000150e+01
1.330666015999999900e+03,4.893791600000000130e+01
1.328978515999999900e+03,3.261749300000000318e+01
1.327292969000000085e+03,3.705648000000000053e+01
1.325605469000000085e+03,3.408382000000000289e+01
1.323917969000000085e+03,2.222326899999999839e+01
1.322230469000000085e+03,2.666154900000000083e+01
1.320541015999999900e+03,1.925095900000000171e+01
1.318853515999999900e+03,2.664880000000000138e+01
1.317164062999999942e+03,2.960269399999999962e+01
1.315474609000000100e+03,2.367648900000000012e+01
1.313785155999999915e+03,1.923254199999999869e+01
1.312093750000000000e+03,2.514422400000000124e+01
1.310404297000000042e+03,2.218076699999999946e+01
1.308712890999999900e+03,2.365381400000000056e+01
1.307021484000000100e+03,2.956018100000000004e+01
1.305330077999999958e+03,1.625420199999999937e+01
1.303636719000000085e+03,2.363680499999999896e+01
1.301945312999999942e+03,2.658502400000000065e+01
1.300251952999999958e+03,2.805523499999999970e+01
1.298558594000000085e+03,2.214355300000000071e+01
1.296863280999999915e+03,2.951764500000000169e+01
1.295169922000000042e+03,1.475527699999999953e+01
